"time","temp","T_env","heater","graph_state"
0.0,25.0,25.0,0,6
0.5,25.0,25.0,0,8
1.0,25.0,25.0,0,8
1.5,25.0,25.0,0,8
2.0,24.99844899490068,24.83328286009086,0,8
2.5,24.97794009129838,23.94421391018106,0,8
3.0,24.94134845354123,23.10724693543753,0,8
3.5,24.888818042723038,22.525599485660948,0,8
4.0,24.81506306183218,21.42757828427474,0,8
4.5,24.717283728465155,20.424056786376088,0,8
5.0,24.599045774168317,19.63544949246649,0,8
5.5,24.463245241133617,18.727088788730097,0,8
6.0,24.30710341032873,18.090632775815592,0,8
6.5,24.124681844458458,16.357145430320568,0,8
7.0,23.916159635043233,15.195701391631637,0,8
7.5,23.68917460383601,14.47835391984165,0,8
8.0,23.44826073063383,13.67595725568129,0,8
8.5,23.1917657112484,12.701107211288534,0,8
9.0,22.927553840315436,12.294573888742724,0,8
9.5,22.650827689429818,11.423154667569587,0,8
10.0,22.359148015420264,10.448937295543075,0,8
10.5,22.059481547811195,10.221814032344017,0,8
11.0,21.76099434279913,10.0,0,8
11.5,21.469895068288277,10.0,0,8
12.0,21.186018011235507,10.0,0,8
12.5,20.90946765869469,10.063508167684589,0,8
13.0,20.647195754348793,10.400507813496557,0,8
13.5,20.40428093143683,11.042749236835977,0,8
14.0,20.174264582742698,11.297432024900868,0,8
14.5,19.963469979814086,11.939128612140404,0,8
15.0,19.779033167205952,12.993867193413703,0,8
15.5,19.614976292689775,13.42764418072468,0,8
16.0,19.46993203309159,13.950067117977232,0,8
16.5,19.344398259585894,14.68271813334946,0,8
17.0,19.246198858364828,15.706855444674032,0,8
17.5,19.172757690304685,16.65288395928562,0,8
18.0,19.117494157223618,17.483980941577926,0,8
18.5,19.086563098175887,18.215048806999683,0,8
19.0,19.087338530555797,19.51714164281725,0,8
19.5,19.114495226060935,20.54280737348396,0,8
20.0,19.16651293163698,21.667892511739307,0,8
20.5,19.351492762154038,21.93638212183022,1,3
21.0,19.574453203980696,22.435388574236313,1,3
21.5,19.805117884074807,23.094508071847404,1,3
22.0,20.043911948398286,23.60698979282545,1,3
22.5,20.287786399271937,24.040093927428,1,3
23.0,20.53384035558364,24.456959131885917,1,3
23.5,20.784975039622758,24.60321825102674,1,3
24.0,21.027605317205172,24.736717807717408,1,3
24.5,21.263878783934647,24.508218140329955,1,3
25.0,21.498978924046252,24.90387385056401,1,3
25.5,21.727319468353148,24.72662680728919,1,3
26.0,21.9399838072658,24.17446854154521,1,3
26.5,22.133360740886626,23.487395876313272,1,3
27.0,22.303538900429913,22.734618544418225,1,3
27.5,22.454045743675433,22.027669367457797,1,3
28.0,22.576931516324283,20.95421471625492,1,3
28.5,22.679303622084486,20.40687667681496,1,3
29.0,22.759732172283634,19.609253643566678,1,3
29.5,22.81497597106897,18.526891234322324,1,3
30.0,22.84477848610075,17.702386076891035,1,3
30.5,22.734717300416953,16.916225792570106,0,8
31.0,22.572557573849995,15.618151475129736,0,8
31.5,22.38521207326642,14.61994992988385,0,8
32.0,22.18696508945659,14.060969741493189,0,8
32.5,21.969745413056305,13.09219747397688,0,8
33.0,21.734177267244494,12.303689916314644,0,8
33.5,21.487505424058515,11.298524730497245,0,8
34.0,21.221039094138703,10.28195388115201,0,8
34.5,20.945691915461566,10.10060145887385,0,8
35.0,20.67746722005254,10.071599733851428,0,8
35.5,20.41318659285594,10.0,0,8
36.0,20.155447240708178,10.0,0,8
36.5,19.90689615251725,10.3426026622658,0,8
37.0,19.66855875997501,10.1315607900685,0,8
37.5,19.439749679823638,10.760062836212342,0,8
38.0,19.225798690914136,10.9380000230134,0,8
38.5,19.023605968255783,11.215371745243942,0,8
39.0,18.849249129155606,12.436347549639788,0,8
39.5,18.710824574391324,13.633429804576222,0,8
40.0,18.59496164567383,14.38017410027119,0,8
40.5,18.61451171477296,14.70657839698275,1,3
41.0,18.6822551604753,15.756410151845234,1,3
41.5,18.76788761072666,16.550783806075763,1,3
42.0,18.875092846542326,17.58033530180123,1,3
42.5,19.00543786059719,18.569555117551648,1,3
43.0,19.161640130141077,19.679305236903595,1,3
43.5,19.337409894716565,20.512786491309587,1,3
44.0,19.52693404363485,21.34809467854827,1,3
44.5,19.731353638680485,21.908989652098256,1,3
45.0,19.94545969553936,22.80472735299946,1,3
45.5,20.172769185581057,23.3005645558784,1,3
46.0,20.401734488644273,23.717865063982863,1,3
46.5,20.640487819332296,24.29863412618733,1,3
47.0,20.875856761885696,24.21590675786099,1,3
47.5,21.111783168682607,24.50035000039184,1,3
48.0,21.349612813926015,24.569636649166913,1,3
48.5,21.575893744526198,24.4751558486948,1,3
49.0,21.793936759624827,24.23871831540552,1,3
49.5,22.006991863299213,24.492407731387793,1,3
50.0,22.210791677037868,23.885237359402176,1,3
50.5,22.276211281293502,23.6662289716056,0,8
51.0,22.306412350983383,23.3880980579098,0,8
51.5,22.32640981479186,22.866457470553403,0,8
52.0,22.32233604947958,21.668161579895752,0,8
52.5,22.291144282049927,20.488694726795547,0,8
53.0,22.22905088191638,19.20678891495866,0,8
53.5,22.150979369189233,18.75798511272178,0,8
54.0,22.052883906858533,17.723252900361103,0,8
54.5,21.927127604102143,16.429722369852612,0,8
55.0,21.780676721272314,15.730428242695174,0,8
55.5,21.618868591225375,14.959550740185177,0,8
56.0,21.43825909811994,13.883987471390938,0,8
56.5,21.24295136459973,13.338516338347166,0,8
57.0,21.03955383202714,12.744496421232952,0,8
57.5,20.824072868621087,12.114660667364127,0,8
58.0,20.58911181562991,11.020323047665794,0,8
58.5,20.343818340150932,10.340180134288175,0,8
59.0,20.103371055253074,10.740454933262052,0,8
59.5,19.862538435251853,10.17668117442393,0,8
60.0,19.61883763207206,10.0,0,8
60.5,19.508577326908966,10.462312432388037,1,3
61.0,19.435423088270056,10.455368036521364,1,3
61.5,19.36465911948872,10.591519286910492,1,3
62.0,19.301329593412287,11.081163608375189,1,3
62.5,19.255590989365313,11.546783050949484,1,3
63.0,19.221748540379025,12.125520773966691,1,3
63.5,19.2054290402757,12.753441047756727,1,3
64.0,19.2147313433279,13.93759133457134,1,3
64.5,19.249471355136055,15.046706115031844,1,3
65.0,19.309224844132075,16.04211848048569,1,3
65.5,19.39181523899481,17.024271847326332,1,3
66.0,19.497537222547926,18.10260755942735,1,3
66.5,19.624816812409914,19.024915887240464,1,3
67.0,19.771072992220326,19.752799529685245,1,3
67.5,19.933487502261833,20.437112194367117,1,3
68.0,20.103938233110657,21.09152740532167,1,3
68.5,20.288867167436987,21.98426345672233,1,3
69.0,20.490107470466246,22.726955973014338,1,3
69.5,20.71116341387972,23.597060144085162,1,3
70.0,20.935597597185698,23.911330079932313,1,3
70.5,21.077340787015906,24.543234877708304,0,8
71.0,21.163764257509676,24.61348988892704,0,8
71.5,21.253160703486397,24.845596308191734,0,8
72.0,21.345899647927066,25.0,0,8
72.5,21.436343187858665,25.0,0,8
73.0,21.524548137404885,25.0,0,8
73.5,21.60791106702308,24.69094296876815,0,8
74.0,21.678411970588822,24.107284566688993,0,8
74.5,21.727652927300515,23.431945108069446,0,8
75.0,21.760352059290838,22.83571684947428,0,8
75.5,21.77164739479848,21.901117117790818,0,8
76.0,21.76566749704015,21.345143143971473,0,8
76.5,21.73495334697055,19.893992326491365,0,8
77.0,21.672805210634177,18.796240656210628,0,8
77.5,21.585549466109235,17.687999146589636,0,8
78.0,21.4814904055202,17.28877269739213,0,8
78.5,21.36321301413292,16.227399437926827,0,8
79.0,21.218569246392978,15.184101073698958,0,8
79.5,21.05926158064488,14.394756730091247,0,8
80.0,20.879813294554985,13.506567851515522,0,8
80.5,20.68846275536969,12.804793458684918,0,7
81.0,20.47889562151365,12.017136315628962,0,7
81.5,20.262547586435048,11.51149613305467,0,7
82.0,20.037054929549527,10.891539193905718,0,7
82.5,19.924145531987122,10.589721748114986,1,3
83.0,19.83212403056045,10.048431750350307,1,3
83.5,19.73730967579473,10.0,1,3
84.0,19.64898067189055,10.448776607545568,1,3
84.5,19.562744548909397,10.003685911877424,1,3
85.0,19.481963712477924,10.353140689562291,1,3
85.5,19.40534173770572,10.657697436908983,1,3
86.0,19.34103439218679,10.728296078986359,1,3
86.5,19.29388704842196,11.749629348330984,1,3
87.0,19.260877362713344,11.928126184975495,1,3
87.5,19.24249194120929,12.727222053491769,1,3
88.0,19.24377267065176,13.760086806769397,1,3
88.5,19.269297744108954,14.456311623738635,1,3
89.0,19.311342175797492,15.269285939851445,1,3
89.5,19.383124548317205,16.7711640569386,1,3
90.0,19.477781237448358,17.52673058733238,1,3
90.5,19.59205972433621,18.604960831939888,1,3
91.0,19.728758820932732,19.51281237133793,1,3
91.5,19.88536257808332,20.330844734330324,1,3
92.0,20.058750494780355,21.265600390506645,1,3
92.5,20.254112935759988,22.269658251895287,1,0
93.0,20.460444210196837,22.88663790768662,1,0
93.5,20.678496406120143,23.442965172642083,1,0
94.0,20.900021743056676,23.85335824616417,1,0
94.5,21.07073886055612,24.533426920663235,0,8
95.0,21.15906356799132,24.679045792622826,0,8
95.5,21.248300717528345,24.66853569692176,0,8
96.0,21.33221498705692,24.759077820451033,0,8
96.5,21.415537689358633,24.669048417750084,0,8
97.0,21.482933274438174,23.910487629713298,0,8
97.5,21.54452433468724,24.107789595961805,0,8
98.0,21.60270284895008,23.684201055838557,0,8
98.5,21.64365799579811,23.067197355661854,0,8
99.0,21.66986680757848,22.68823939604355,0,8
99.5,21.679249537017306,21.71809082208327,0,8
100.0,21.67105989672268,21.14714171655222,0,8
100.5,21.64667863652483,20.223944959237357,0,8
101.0,21.59330152780596,18.965222727087713,0,8
101.5,21.5156634536626,18.10838651968623,0,8
102.0,21.410756968372752,16.874402560370395,0,8
102.5,21.287485625090984,16.073631141409482,0,8
103.0,21.14513827991833,15.099517354425458,0,8
103.5,20.978818262888087,14.193794232879121,0,8
104.0,20.799412826294343,13.467339798023222,0,8
104.5,20.604486491151786,12.459552131241317,0,7
105.0,20.390708801792186,11.583448090536812,0,7
105.5,20.167356102748617,11.272262926153708,0,7
106.0,19.97055362617043,10.652350829132633,1,3
106.5,19.88341780252064,10.17330856606773,1,3
107.0,19.78745924060175,10.0,1,3
107.5,19.693714901896776,10.0,1,3
108.0,19.602290852462524,10.0,1,3
108.5,19.513129662246417,10.0,1,3
109.0,19.42617532266129,10.0,1,3
109.5,19.346877407397137,10.41506359528534,1,3
110.0,19.284710952154274,11.185510107579207,1,3
110.5,19.243477034164783,11.660336073261078,1,3
111.0,19.21085738143842,12.104768657103769,1,3
111.5,19.198244591432488,13.012079899527418,1,3
112.0,19.206283084480592,13.843706343434636,1,3
112.5,19.237509403102017,14.835434870485088,1,3
113.0,19.29083527446364,15.829107281382445,1,3
113.5,19.36383078470864,16.512576778789203,1,3
114.0,19.457707307916582,17.414998978433882,1,3
114.5,19.567672010725055,18.387843797523395,1,3
115.0,19.69997540029992,19.265064102695916,1,3
115.5,19.851226653403227,20.199870917776433,1,3
116.0,20.026879165306237,21.406348890019913,1,3
116.5,20.218980383855172,22.12770487807606,1,3
117.0,20.42633904347976,22.796515400891384,1,3
117.5,20.648070918992232,23.740960477301975,1,3
118.0,20.878907677008524,24.136944689128562,1,3
118.5,21.115228704356767,24.36718884924934,1,3
119.0,21.344834802431546,24.465438759925384,1,3
119.5,21.57138212039282,24.47946020279203,1,3
120.0,21.801529648305557,24.932164763556855,1,3
120.5,22.028177519296772,25.0,1,3
121.0,22.24777298772292,24.69334334467135,1,3
121.5,22.450945438506594,24.27585708602304,1,3
122.0,22.637781151641278,23.803972273460715,1,3
122.5,22.804693741649547,23.15849685339965,1,3
123.0,22.96054600111157,23.02709206675982,1,3
123.5,23.089411497682725,21.82485825683355,1,3
124.0,23.195025019691986,21.118138259944427,1,3
124.5,23.28260587862025,20.678325309644293,1,3
125.0,23.35153833674229,19.681022878722693,1,3
125.5,23.388214661246305,18.43495588974965,1,3
126.0,23.36295045918084,17.050011274147927,0,8
126.5,23.19330506534743,16.108186631645463,0,8
127.0,23.007848583475518,15.358301861923536,0,8
127.5,22.802989854739877,14.292854211813221,0,8
128.0,22.581880425320623,13.511768795285835,0,8
128.5,22.34803620345106,12.735003623898425,0,8
129.0,22.107788606831956,12.46603912642298,0,8
129.5,21.86207995715246,11.960221255782814,0,8
130.0,21.612717578636953,11.629234608422568,0,8
130.5,21.353186830641025,10.706177581554588,0,8
131.0,21.086959274985933,10.532664314881877,0,8
131.5,20.824707259578553,10.450628571009009,0,8
132.0,20.565318684517283,10.162419210257223,0,8
132.5,20.30553505578152,10.007299486719246,0,8
133.0,20.052252163338434,10.0,0,8
133.5,19.80489696295187,10.135676617017374,0,8
134.0,19.572275690499872,10.477736404819261,0,8
134.5,19.362349483016878,11.305429778430925,0,8
135.0,19.17170203157412,11.88205377486383,0,8
135.5,19.00242827264767,12.825600940421237,0,8
136.0,18.889879194015315,13.639495153245665,1,3
136.5,18.920251460532693,14.388158755040557,1,3
137.0,18.9698574086462,15.279945624099444,1,3
137.5,19.041181067752465,16.33231475963195,1,3
138.0,19.131390160847097,16.965076927399995,1,3
138.5,19.241458228188886,17.93929633719608,1,3
139.0,19.37258619832998,18.822161527791923,1,3
139.5,19.52798302477851,19.99554308065394,1,3
140.0,19.69837954945316,20.734187132507916,1,3
140.5,19.88872357254726,21.70343437008325,1,3
141.0,20.093618320462443,22.389509863470867,1,3
141.5,20.316785301957985,23.3885823347346,1,3
142.0,20.555466675607263,24.257386242812107,1,3
142.5,20.803274228838468,24.72160714624602,1,3
143.0,21.053765955577287,25.0,1,3
143.5,21.299294412620018,25.0,1,3
144.0,21.538967011334876,25.0,1,3
144.5,21.772838690585303,24.939863205178455,1,3
145.0,22.00104845937684,25.0,1,3
145.5,22.215903712824343,24.365917352119364,1,3
146.0,22.38191506835648,23.997437832220882,0,8
146.5,22.411608255199273,23.54442344316457,0,8
147.0,22.428701516733792,22.957755737535436,0,8
147.5,22.432607662748342,22.28962239069134,0,8
148.0,22.4223538388449,21.723860915309892,0,8
148.5,22.392725428543873,20.755975551496327,0,8
149.0,22.333118101267335,19.702948531257213,0,8
149.5,22.26158049698986,19.04562048660576,0,8
150.0,22.161665602652374,17.81288240350204,0,8
150.5,22.035985391978087,16.51783168900334,0,8
151.0,21.88774359924366,15.629329163755475,0,8
151.5,21.719182617027872,14.713975592741708,0,8
152.0,21.533819056607346,13.754695092220452,0,8
152.5,21.33281709064651,13.157993611963818,0,8
153.0,21.116667459455673,12.390858376719923,0,8
153.5,20.879645368066686,10.991394447506472,0,8
154.0,20.629066142608618,10.524324088738371,0,8
154.5,20.37608543985905,10.254732686931948,0,8
155.0,20.120670703694483,10.0,0,8
155.5,19.87017148453513,10.0,0,8
156.0,19.65587243339197,10.0,1,3
156.5,19.565385032238154,10.0,1,3
157.0,19.478397353952605,10.167273859036115,1,3
157.5,19.401172567323698,10.632998925983818,1,3
158.0,19.341696999242284,11.30488992340581,1,3
158.5,19.29417290296936,11.478308666421604,1,3
159.0,19.262726224594626,12.461930231287639,1,3
159.5,19.251960985088928,13.09469747466746,1,3
160.0,19.262119685195128,13.87180560606971,1,3
160.5,19.28752284097217,14.64733678957106,1,3
161.0,19.33285504800948,15.395346299905569,1,3
161.5,19.40033370990757,16.453343773946823,1,3
162.0,19.490272586998863,17.28842578202033,1,3
162.5,19.601217742639477,18.37335583234316,1,3
163.0,19.7311052164832,19.189418421156066,1,3
163.5,19.886100946145692,20.367588521070747,1,3
164.0,20.063133732486815,21.449748814449357,1,3
164.5,20.260689954953275,22.199905513168147,1,3
165.0,20.46813098224575,22.761129491731904,1,3
165.5,20.678829866537264,23.196710399393634,1,3
166.0,20.893532305424763,23.559366909237887,1,0
166.5,21.053990600814267,23.95540725618578,0,8
167.0,21.140472718913838,24.59275743820191,0,8
167.5,21.233722962139463,25.0,0,8
168.0,21.32149018555691,24.58223186040201,0,8
168.5,21.40225318245918,24.477731473665273,0,8
169.0,21.478130647465175,24.56113022414983,0,8
169.5,21.54937014338823,24.04974876979997,0,8
170.0,21.597739871628892,23.46148038312342,0,8
170.5,21.637778257489014,23.02166175825312,0,8
171.0,21.66489291575506,22.317783311439687,0,8
171.5,21.676861866961392,21.95728460879747,0,8
172.0,21.670783142983957,20.96540915083143,0,8
172.5,21.636438584304344,19.90608385922462,0,8
173.0,21.580089958797668,19.0664773393178,0,8
173.5,21.49888326808597,17.845165185558592,0,8
174.0,21.396419971723322,17.042649062464747,0,8
174.5,21.28407564521303,16.441820013605852,0,8
175.0,21.148725408511797,15.2879719963109,0,8
175.5,20.990651963678907,14.625133236084139,0,8
176.0,20.817904401626453,13.554443197899422,0,8
176.5,20.631164122852756,13.300548769901336,0,7
177.0,20.43668586184736,12.513308251190267,0,7
177.5,20.227351803499484,11.61310801497097,0,7
178.0,20.009563755421247,11.348892357549719,0,7
178.5,19.901803623581728,10.394544414602851,1,3
179.0,19.811091968918834,10.0,1,3
179.5,19.716762690720884,10.0,1,3
180.0,19.624768179775455,10.0,1,3
180.5,19.53505064768186,10.0,1,3
181.0,19.447553736374413,10.0,1,3
181.5,19.365876388977814,10.363571252869422,1,3
182.0,19.29990296975705,10.91107266864027,1,3
182.5,19.24922340197897,11.497133580384101,1,3
183.0,19.221701736534357,12.506365224201232,1,3
183.5,19.213612468983044,13.468010896176551,1,3
184.0,19.23271262022651,14.298420923303782,1,3
184.5,19.270203445271253,14.862268058155916,1,3
185.0,19.32232130721901,15.645281018362814,1,3
185.5,19.401795541115042,17.0692997887624,1,3
186.0,19.5016141816385,17.63620491609398,1,3
186.5,19.618522049565456,18.557307574798752,1,3
187.0,19.750340453314454,19.0628740407554,1,3
187.5,19.895869884782684,20.002352278232237,1,3
188.0,20.063488380485403,21.178675238535128,1,3
188.5,20.254793100595236,22.060208823915232,1,0
189.0,20.45784121220217,22.642208903692868,1,0
189.5,20.674294949826486,23.51857381455408,1,0
190.0,20.90265342730697,24.00207052095294,1,0
190.5,21.071444325656902,24.15017840264887,0,8
191.0,21.15378668002304,24.716135106026883,0,8
191.5,21.239309569323744,24.586376924391892,0,8
192.0,21.32990043597242,24.992702919795477,0,8
192.5,21.4203650209441,25.0,0,8
193.0,21.508522215558617,25.0,0,8
193.5,21.589709642425746,24.560156984736395,0,8
194.0,21.65575041076686,24.002985769611303,0,8
194.5,21.704512718640842,23.40916006412639,0,8
195.0,21.741956028718317,22.929525119964527,0,8
195.5,21.759367984314288,22.10171982654689,0,8
196.0,21.75717395796383,21.33900051582067,0,8
196.5,21.73626295552415,20.775152809003814,0,8
197.0,21.700549315807198,19.98601813944356,0,8
197.5,21.63732046454685,18.5601331811931,0,8
198.0,21.550941566029305,17.791154570990955,0,8
198.5,21.446791155475186,16.952471446661104,0,8
199.0,21.31870187079118,15.799045046581654,0,8
199.5,21.171887680722698,15.136360683653713,0,8
200.0,21.004303071822314,13.971243331518158,0,8
200.5,20.818762657266184,13.206865004039198,0,7
201.0,20.61956377393064,12.36414099755841,0,7
201.5,20.40415740437943,11.671729531520585,0,7
202.0,20.181182757140267,11.178641028472368,0,7
202.5,19.981499833264234,10.923846609424775,1,3
203.0,19.90006489842084,10.467748984955168,1,3
203.5,19.81776613315213,10.43241778361946,1,3
204.0,19.725924151324627,10.0,1,3
204.5,19.63591810307365,10.115381974333918,1,3
205.0,19.55193583276114,10.416449381017976,1,3
205.5,19.475913057054417,10.535360784064231,1,3
206.0,19.414425820664995,11.39767799879955,1,3
206.5,19.37235002568533,11.947792623086416,1,3
207.0,19.343926026273785,12.502072702443973,1,3
207.5,19.33256118271759,13.253667522578802,1,3
208.0,19.338765341229507,13.84475173357217,1,3
208.5,19.36534006755612,15.021102963451863,1,3
209.0,19.4181852449631,15.920201498021273,1,3
209.5,19.49012353917406,16.651482176803682,1,3
210.0,19.577174043406785,17.27614012627604,1,3
210.5,19.688269785716766,18.651134272998384,1,3
211.0,19.82246383106142,19.555971665071826,1,3
211.5,19.969721403792533,19.913679270431956,1,3
212.0,20.135912864330468,21.225775958968292,1,3
212.5,20.324412362324686,22.10928655002755,1,0
213.0,20.5353499849751,23.187213429584403,1,0
213.5,20.752895376692777,23.673998371897852,1,0
214.0,20.988446585442674,24.576073264092077,1,0
214.5,21.113637365894313,24.833293331142578,0,8
215.0,21.205617542552744,24.807312063580707,0,8
215.5,21.297804299793757,24.968616765032902,0,8
216.0,21.38593913388951,24.803775918602184,0,8
216.5,21.470963563167288,24.808062229067694,0,8
217.0,21.548522702231214,24.479712877737555,0,8
217.5,21.62046882627255,24.554591656113203,0,8
218.0,21.685443471917132,23.946273129407896,0,8
218.5,21.73111914513336,23.264132047441635,0,8
219.0,21.762037807347,22.72360715412287,0,8
