"time","temp","T_env","heater","graph_state"
0.0,25.0,25.0,0,6
0.5,25.0,25.0,0,8
1.0,25.0,25.0,0,8
1.5,25.0,25.0,0,8
2.0,24.999411588436054,24.882317687211007,0,8
2.5,24.991939540527557,24.554744578895512,0,8
3.0,24.97204842121318,24.037972447444837,0,8
3.5,24.93028001585719,22.87035709273562,0,8
4.0,24.869978418874485,22.157977660857192,0,8
4.5,24.7849390568487,20.933630450809602,0,8
5.0,24.67483764231252,20.030669370065354,0,8
5.5,24.544159346608282,18.972035716987698,0,8
6.0,24.389562057888927,18.009995486607902,0,8
6.5,24.208207548472124,16.48966010113383,0,8
7.0,24.00803853953664,15.632183158327928,0,8
7.5,23.785599566730852,14.760027129992249,0,8
8.0,23.548944915004345,13.961670560481762,0,8
8.5,23.295171721779077,13.072609123355885,0,8
9.0,23.028919900902167,12.197307432157132,0,8
9.5,22.749401350207116,11.491824386333018,0,8
10.0,22.46457572182724,10.978012375688413,0,8
10.5,22.16757278030645,10.344806380530574,0,8
11.0,21.87342271512867,10.19235216664909,0,8
11.5,21.580362238629657,10.0,0,8
12.0,21.293733833923216,10.0,0,8
12.5,21.014199839623952,10.0,0,8
13.0,20.741584660228416,10.0,0,8
13.5,20.476177653203365,10.004586051031954,0,8
14.0,20.226052403895874,10.720154509368973,0,8
14.5,19.99449889456994,11.2227088845379,0,8
15.0,19.79001888389997,11.934575913869818,0,8
15.5,19.617645469785103,13.385672579195532,0,8
16.0,19.47859989017155,14.395074897795098,0,8
16.5,19.363024645305103,15.02614055984474,0,8
17.0,19.26642835995359,15.859466896446618,0,8
17.5,19.19679015054852,16.857995571729564,0,8
18.0,19.153251879757352,17.83389288626765,0,8
18.5,19.133807973859312,18.73642926464765,0,8
19.0,19.13175309879064,19.363359576940546,0,8
19.5,19.149807266119787,20.087230865930685,0,8
20.0,19.187100625273473,21.11634557166756,0,8
20.5,19.240850332658905,21.642425797531853,0,8
21.0,19.31666245557687,22.637200578590445,0,8
21.5,19.407580928192637,23.147975514603836,0,8
22.0,19.516656563810034,24.344885959786332,0,8
22.5,19.636986231992196,24.3673551973702,0,8
23.0,19.76053490149221,24.60047108214564,0,8
23.5,19.884252106627216,25.0,0,8
24.0,20.01002709272375,24.926468557381057,0,8
24.5,20.131433201864983,24.970547660344266,0,8
25.0,20.251936300628266,25.0,0,8
25.5,20.364795729744095,24.62558199774963,0,8
26.0,20.468593267208554,24.438405435166516,0,8
26.5,20.5553602651854,23.74230620431026,0,8
27.0,20.623518989621296,22.864611297064542,0,8
27.5,20.66826731673801,22.0933484926149,0,8
28.0,20.69035137495429,21.19922614553952,0,8
28.5,20.694772778496745,20.505002325709285,0,8
29.0,20.67404897430661,19.429916858440883,0,8
29.5,20.631248267528054,18.599213666895114,0,8
30.0,20.56341062865491,17.310779812013177,0,8
30.5,20.46594308095629,16.23895558937131,0,8
31.0,20.34641027959583,15.269876828354784,0,8
31.5,20.207403133871402,14.274825283810522,0,8
32.0,20.04636034305158,13.313962503199093,0,8
32.5,19.879596384499205,13.089625847086438,0,8
33.0,19.69563755449454,12.306249760771895,0,8
33.5,19.499777751421867,11.268647727364751,0,8
34.0,19.29308659303087,10.981108394651702,0,8
34.5,19.07946962727078,10.431459281758496,0,8
35.0,18.857990002342724,10.000154835183595,0,8
35.5,18.638798048266384,10.0,0,8
36.0,18.428234143035528,10.284245396081579,0,8
36.5,18.232033247181235,10.624682679606831,0,8
37.0,18.04706142999385,10.750188402703262,0,8
37.5,17.87714048094181,11.304431862282637,0,8
38.0,17.723507894822475,11.84059882807184,0,8
38.5,17.57957033602016,12.071763584501547,0,8
39.0,17.449735322818412,12.462557023099635,0,8
39.5,17.33413645399509,13.047088266246323,0,8
40.0,17.23689993203581,13.7485693589768,0,8
40.5,17.15842653805284,14.428705050397877,0,8
41.0,17.107404438756593,15.632907220005713,0,8
41.5,17.084319209373824,16.412611095477946,0,8
42.0,17.085135669839215,17.57444612697073,0,8
42.5,17.111262406038996,18.3586872712647,0,8
43.0,17.16409233764667,19.725754067053174,0,8
43.5,17.2372657422093,20.333522721564677,0,8
44.0,17.329672856348342,21.46888329891361,0,8
44.5,17.44559586618429,22.433806965945156,0,8
45.0,17.577404602366578,22.932271291980022,0,8
45.5,17.719808210549484,23.517851467010466,0,8
46.0,17.8717811218658,24.080465828918676,0,8
46.5,18.030966984632435,24.464577346090675,0,8
47.0,18.196382929373875,24.692717292940667,0,8
47.5,18.35953968992732,24.858716747683197,0,8
48.0,18.51798658886214,24.769580552867293,0,8
48.5,18.676113968610423,24.91199549004284,0,8
49.0,18.830541063648543,24.974936807725467,0,8
49.5,18.97819013086537,24.64010073008603,0,8
50.0,19.117026972710352,24.53925217881389,0,8
50.5,19.238204402624266,23.824265194593938,0,8
51.0,19.340972208030433,22.883596387510515,0,8
51.5,19.412087748151453,21.885305594675565,0,8
52.0,19.46004539924223,20.889482810193336,0,8
52.5,19.481347937041072,19.900687083421825,0,8
53.0,19.472507095445735,18.821082136826192,0,8
53.5,19.447142320951382,17.9604316475179,0,8
54.0,19.39822325055882,16.979793554984735,0,8
54.5,19.32672191168224,16.24334351511845,0,8
55.0,19.245495330725802,15.911996001339254,0,8
55.5,19.147663786924713,15.02994616363421,0,8
56.0,19.0338170666819,14.431581105505048,0,8
56.5,18.89584597083189,13.093731089135474,0,8
57.0,18.740517931156106,12.443557458930762,0,8
57.5,18.568767242398106,11.353132147379617,0,8
58.0,18.38181513915969,11.023558770282555,0,8
58.5,18.19158011001484,10.428351148172066,0,8
59.0,17.99812802814441,10.32655098232615,0,8
59.5,17.811563665407604,10.408827667812275,0,8
60.0,17.630491137435158,10.601879636342879,0,8
60.5,17.463893201372603,11.135007818867784,0,8
61.0,17.29616762106711,10.576107458542488,0,8
61.5,17.139085925215827,11.292894203706531,0,8
62.0,16.99950647395572,11.626319489200196,0,8
62.5,16.879863504515562,12.249521727561394,0,8
63.0,16.778141378403273,12.93735852948351,0,8
63.5,16.68883045603889,13.483772261975567,0,8
64.0,16.624383168930233,14.355248010651401,0,8
64.5,16.576543335424574,14.991883280115808,0,8
65.0,16.550842546157956,15.813078059254098,0,8
65.5,16.545951551437273,16.725793714369733,0,8
66.0,16.566966041965063,17.491589806562285,0,8
66.5,16.600810183380926,18.21784876421899,0,8
67.0,16.656870960947607,19.31774944955737,0,8
67.5,16.736040650150983,20.296274356435198,0,8
68.0,16.836308311859185,21.281892274437187,0,8
68.5,16.95613047835001,21.922382931003657,0,8
69.0,17.088060343441608,22.744349197985855,0,8
69.5,17.24142702135641,23.755760290769647,0,8
70.0,17.413221441767334,24.593566159719153,0,8
70.5,17.593624087809726,24.665341551506778,0,8
71.0,17.77392211014245,25.0,0,8
71.5,17.952776547954876,25.0,0,8
72.0,18.12720411542176,25.0,0,8
72.5,18.297314383103917,25.0,0,8
73.0,18.462689749733862,24.895108035938634,0,8
73.5,18.612142225341625,24.379446736354762,0,8
74.0,18.749436642807066,23.97657122344499,0,8
74.5,18.88040769988,23.88698216683,0,8
75.0,18.996626195057942,23.384629905255096,0,8
75.5,19.095688929883316,22.62182866148427,0,8
76.0,19.16738863526262,21.541451543367504,0,8
76.5,19.21460866720641,20.861365529842917,0,8
77.0,19.239918138406047,20.01132997438879,0,8
77.5,19.246020404231583,19.003795652322093,0,8
78.0,19.220295004906195,17.771639041602214,0,8
78.5,19.166075319019736,16.57240740324385,0,8
79.0,19.08783625974613,15.563358587576728,0,8
79.5,18.979874274688672,14.299095535087131,0,8
80.0,18.845802716606386,13.174033606052,0,8
80.5,18.69300244218927,12.418349543813381,0,8
81.0,18.527711041278902,11.802848765745079,0,8
81.5,18.35456300848213,11.359809123281035,0,8
82.0,18.173164063165334,10.87137476468391,0,8
82.5,17.993091930288802,10.697731813314423,0,8
83.0,17.805327067469378,10.221582459092375,0,8
83.5,17.612525651423333,10.0,0,8
84.0,17.424106149658897,10.0,0,8
84.5,17.240350265499288,10.0,0,8
85.0,17.061142568593816,10.0,0,8
85.5,16.887926875043753,10.10376091274692,0,8
86.0,16.730094315904452,10.68799148832266,0,8
86.5,16.580668627504647,10.890693930370425,0,8
87.0,16.444161826270253,11.53530397657287,0,8
87.5,16.33343393388819,12.27650148702326,0,8
88.0,16.240629657667277,13.000891953679961,0,8
88.5,16.179594203058297,14.150466124150807,0,8
89.0,16.145950916615874,15.271171657859496,0,8
89.5,16.145802290629685,16.69191887762828,0,8
90.0,16.16694483423728,17.56145637846931,0,8
90.5,16.208487428901105,18.231043533829435,0,8
91.0,16.274128755621128,19.26344582915383,0,8
91.5,16.36631681259394,20.4007424116691,0,8
92.0,16.469832765325926,20.82952393537354,0,8
92.5,16.583595034657474,21.184042459296403,0,8
93.0,16.714345130771893,22.217154641883596,0,8
93.5,16.86267541831418,23.12267718665938,0,8
94.0,17.020819343788386,23.50191270997352,0,8
94.5,17.19076170203399,24.104596515349016,0,8
95.0,17.372957515994724,24.721186933650312,0,8
95.5,17.558127231774172,25.0,0,8
96.0,17.742269334235406,24.99387909702641,0,8
96.5,17.91924654492112,24.670598560124347,0,8
97.0,18.09136275447488,25.0,0,8
97.5,18.25911168462739,24.69668312711961,0,8
98.0,18.41349058114701,24.356299505964163,0,8
98.5,18.54813726562326,23.603814543177776,0,8
99.0,18.66493401489572,22.966628212826286,0,8
99.5,18.757014199245237,22.12134353411782,0,8
100.0,18.828249419988317,21.15463189200766,0,8
100.5,18.99267643603842,20.462808327380912,1,3
101.0,19.162724169059764,19.435237127308437,1,3
101.5,19.305836904329567,18.773163844887797,1,3
102.0,19.426157703114768,17.837955338151776,1,3
102.5,19.52349426201484,16.75464238141111,1,3
103.0,19.583682403722435,15.305050291669803,1,3
103.5,19.613542578152767,14.54348800370914,1,3
104.0,19.62822342796217,13.805053757742835,1,3
104.5,19.62037401494252,12.939015308070122,1,3
105.0,19.590114650373486,12.164096570326482,1,3
105.5,19.540859574839835,11.251659112508436,1,3
106.0,19.47491426083445,10.754610187899376,1,3
106.5,19.404578689266412,10.357008236343898,1,3
107.0,19.326700768048948,10.31020079575772,1,3
107.5,19.24611432176838,10.030820783838152,1,3
108.0,19.165768944795676,10.0,1,3
108.5,19.092406314642453,10.345802658209635,1,3
109.0,19.026140314694743,10.489895703097847,1,3
109.5,18.964849475187528,10.215819795807814,1,3
110.0,18.905079519780607,10.710119913780314,1,3
110.5,18.857088813854293,11.173998010496934,1,3
111.0,18.839562143488195,12.661178455763903,1,3
111.5,18.844554804889448,13.416749186256068,1,3
112.0,18.868394844175,14.145858187455694,1,3
112.5,18.911578420096046,14.942667069012401,1,3
113.0,18.971956930482232,15.82288331953957,1,3
113.5,19.056944732010564,16.815469248166277,1,3
114.0,19.16761008665434,17.818127808245123,1,3
114.5,19.3008326828079,18.85173754008818,1,3
115.0,19.45839596864799,19.92630307917573,1,3
115.5,19.629343284201056,20.49743805472378,1,3
116.0,19.80810542960024,21.08453195609554,1,3
116.5,20.002193860930433,22.06790076114124,1,3
117.0,20.21118181318283,22.842472384742557,1,3
117.5,20.435586779459275,23.503778175993062,1,3
118.0,20.67719647243137,24.52244308014295,1,3
118.5,20.92559120132586,24.841472384270272,1,3
119.0,21.174755973768224,24.96243194756291,1,3
119.5,21.417797892041037,25.0,1,3
120.0,21.654969342051217,25.0,1,3
120.5,21.88449859273735,25.0,1,3
121.0,22.102104308610674,24.463441954316274,1,3
121.5,22.298599996229274,23.854614594582202,1,3
122.0,22.485178465615952,23.87064703463066,1,3
122.5,22.6627956864184,23.51673012660307,1,3
123.0,22.818987437352078,22.590553776165986,1,3
123.5,22.947142355056858,21.838596671146927,1,3
124.0,23.05272155800287,20.83073837092815,1,3
124.5,23.135973096814162,20.028550125639924,1,3
125.0,23.192395444554798,19.014631691972635,1,3
125.5,23.222580485546196,18.114842728495013,1,3
126.0,23.22976902780388,17.03319376483292,1,3
126.5,23.21641873145358,16.550411704303606,1,3
127.0,23.183135273530564,15.592510396460781,1,3
127.5,23.136581832783154,14.983588678558727,1,3
128.0,23.071306352294847,14.262682568221152,1,3
128.5,22.988575782365643,13.306368245602641,1,3
129.0,22.886614070474796,12.41922623259397,1,3
129.5,22.762873114849413,11.562063376476504,1,3
130.0,22.62017780205859,10.725564807843407,1,3
130.5,22.467364227275922,10.218921837589802,1,3
131.0,22.309001435832972,10.0,1,3
131.5,22.152845783740226,10.0,1,3
132.0,22.000555178743838,10.0,1,3
132.5,21.852033956108937,10.0,1,3
133.0,21.70718881892211,10.0,1,3
133.5,21.575784590663094,10.718412394027574,1,3
134.0,21.46158632222195,11.150616718264404,1,3
134.5,21.36497561748215,11.828820720504755,1,3
135.0,21.285838786915235,12.318741396335287,1,3
135.5,21.221191772353382,13.141405057252653,1,3
136.0,21.185313635971657,14.138122372532436,1,3
136.5,21.16369943437916,14.552082580339142,1,3
137.0,21.164741764789884,15.420298842058628,1,3
137.5,21.18211148456555,16.169598960168116,1,3
138.0,21.21987647347148,17.342020081118363,1,3
138.5,21.284203560287107,17.94956755073793,1,3
139.0,21.37190485375785,19.24798576101321,1,3
139.5,21.485365489701536,20.260109616970684,1,3
140.0,21.622547842810647,21.518776406714856,1,3
140.5,21.783191602690454,22.57990169554491,1,3
141.0,21.959652864987703,23.20267528386477,1,3
141.5,22.149167327682257,23.80178675599091,1,3
142.0,22.347892314235686,24.36564725922971,1,3
142.5,22.546889658009068,24.57863130122114,1,3
143.0,22.740544482219434,24.021319783684756,1,3
143.5,22.927201548480838,24.438062662642302,1,3
144.0,23.11583065636655,24.68380728398178,1,3
144.5,23.304387319561858,24.817666124436624,1,3
145.0,23.479281662882716,24.065322061950305,1,3
145.5,23.641403465497568,24.008379577011624,1,3
146.0,23.794601854445027,23.595096906050614,1,3
146.5,23.93458674340991,23.449576925872744,1,3
147.0,24.061118981173994,22.69006763146556,1,3
147.5,24.16746774878571,22.11222604606573,1,3
148.0,24.256045403505425,21.360556720648994,1,3
148.5,24.312593240396208,20.10107246075714,1,3
149.0,24.342231077524943,18.94297896610536,1,3
149.5,24.351505998236213,18.49434931439987,1,3
150.0,24.33999502979311,17.443843735103584,1,3
150.5,24.30833442993172,16.905948669290126,1,3
151.0,24.25676664116019,15.707785725191869,1,3
151.5,24.1783226802068,14.534219640383448,1,3
152.0,24.07900553640312,13.68303994875151,1,3
152.5,23.9565813194419,12.822709475174207,1,3
153.0,23.825295397694234,12.44111604064798,1,3
153.5,23.674585155017116,11.340818299029559,1,3
154.0,23.510694986854386,10.767417072332224,1,3
154.5,23.344276218841067,10.820515560359278,1,3
155.0,23.180338562011652,10.505161446037603,1,3
155.5,23.00530768452526,10.0,1,3
156.0,22.83392564586526,10.267353197498553,1,3
156.5,22.67454241153618,10.534047478248208,1,3
157.0,22.52723488905248,10.775664586565322,1,3
157.5,22.396572100904123,11.381010916828227,1,3
158.0,22.28050379179264,11.783067721410882,1,3
158.5,22.17501117299538,12.08736736680666,1,3
159.0,22.08108252101661,12.615064360531669,1,3
159.5,22.0072746587464,13.505909738678945,1,3
160.0,21.95446889909845,13.906602609475735,1,3
160.5,21.924250789184516,15.119178104698129,1,3
161.0,21.91777053858775,15.981638187716014,1,3
161.5,21.934782971074256,17.116501226268475,1,3
162.0,21.976533168110965,17.919850191020977,1,3
162.5,22.029503105257888,18.58505893064231,1,3
163.0,22.1081785457456,19.55859869764805,1,3
163.5,22.207372029221535,20.423353403869648,1,3
164.0,22.32599093516195,21.29004277847794,1,3
164.5,22.459897102933724,22.07174513484941,1,3
165.0,22.611260829667923,22.81218096029253,1,3
165.5,22.76962621943133,23.124401897495922,1,3
166.0,22.939559632176458,23.933467000669005,1,3
166.5,23.1160568657203,24.447988691077597,1,3
167.0,23.306527725452078,25.0,1,3
167.5,23.49695075706942,25.0,1,3
168.0,23.682202127635282,24.972648392692122,1,3
168.5,23.861198622480867,24.952823772477352,1,3
169.0,24.031799426890476,24.665540762750062,1,3
169.5,24.187607435049713,24.28866264629847,1,3
170.0,24.32922401433864,23.631340526376622,1,3
170.5,24.454430939842243,23.360966285787782,1,3
171.0,24.5714936594662,23.06942861107435,1,3
171.5,24.669454371186696,22.03262851492577,1,3
172.0,24.746403922037636,21.43198427405104,1,3
172.5,24.802242968880822,20.723017645426772,1,3
173.0,24.83351405334685,19.6498611156177,1,3
173.5,24.839683750698814,18.675151868783047,1,3
174.0,24.81823977630926,17.593893637519216,1,3
174.5,24.773344137588477,16.70299285112123,1,3
175.0,24.708393507080086,15.876347555437382,1,3
175.5,24.62102086284321,14.780608980747827,1,3
176.0,24.512066963293513,13.872115763917549,1,3
176.5,24.38426573235387,13.249371970636135,1,3
177.0,24.24886346043943,12.691327051882654,1,3
177.5,24.103086678451035,12.21974849444009,1,3
178.0,23.948625319021463,11.53448796262047,1,3
178.5,23.78879047955309,11.36411149225481,1,3
179.0,23.620613334858938,10.733296808355739,1,3
179.5,23.448831242786365,10.582636648167018,1,3
180.0,23.276859032061687,10.455973548137646,1,3
180.5,23.10411921847078,10.42855803519149,1,3
181.0,22.937844012767147,10.408172442479763,1,3
181.5,22.78285523550655,10.937950079952103,1,3
182.0,22.64126413089166,11.192862572821916,1,3
182.5,22.51859234830521,12.058631227917344,1,3
183.0,22.41892646529356,12.817274978715735,1,3
183.5,22.336297079197468,13.399425041017455,1,3
184.0,22.274311539415354,13.85268754483866,1,3
184.5,22.22787504021624,14.726879495036135,1,3
185.0,22.20776186057601,15.747123503764543,1,3
185.5,22.205337404361632,16.53646289788031,1,3
186.0,22.2208922328621,17.3981747985299,1,3
186.5,22.26533327041229,18.43522058963004,1,3
187.0,22.338792813652514,19.934477529589504,1,3
187.5,22.442645207066935,20.75167060708233,1,3
188.0,22.560947826199794,21.63243156291041,1,3
188.5,22.694061419933018,22.181423274138353,1,3
189.0,22.837371229977062,22.724346143916932,1,3
189.5,22.992833008006468,23.365530332675128,1,3
190.0,23.157695164422627,23.866491915824465,1,3
190.5,23.328301943896783,24.048651288099045,1,3
191.0,23.505513141202655,24.826725409789635,1,3
191.5,23.68925267817207,24.928099475404256,1,3
192.0,23.867408001116694,24.880866877456263,1,3
192.5,24.036733589589552,24.6625947124529,1,3
193.0,24.19495338463166,24.269763140084713,1,3
193.5,24.341192446097516,24.00402925556144,1,3
194.0,24.472187644604144,23.492705030451756,1,3
194.5,24.587015231718016,22.9588373180276,1,3
195.0,24.68249978922557,22.024165302117872,1,3
195.5,24.752264136153528,21.477014953966563,1,3
196.0,24.806483563911467,20.60047566274334,1,3
196.5,24.83701355570765,19.77795503263896,1,3
197.0,24.851230768980766,19.055876102528874,1,3
197.5,24.841722158776413,18.19746821660113,1,3
198.0,24.810243766316763,17.22316080481936,1,3
198.5,24.75740997464138,16.178658088653346,1,3
199.0,24.681347213965374,15.306489671086865,1,3
199.5,24.580338426236338,14.22735998023587,1,3
200.0,24.465922817134373,13.63178613263198,1,3
200.5,24.221366359191787,13.30579811335004,0,8
201.0,23.939359951511317,12.570999202194091,0,8
201.5,23.646203410257282,12.13142079260244,0,8
202.0,23.354719605203634,11.709275834755452,0,8
202.5,23.058572890292023,11.132416519723485,0,8
203.0,22.755688227355126,10.680109605896451,0,8
203.5,22.45588659690841,10.617795486130731,0,8
204.0,22.15809995994672,10.199506581892864,0,8
204.5,21.863942930633662,10.470861342420765,0,8
205.0,21.582141521823058,10.59388338111683,0,8
205.5,21.313312194287494,10.590545630208801,0,8
206.0,21.04880604441385,10.680551058739834,0,8
206.5,20.806346244638995,11.419451923563923,0,8
207.0,20.579207486888784,11.786644866397086,0,8
207.5,20.368149626408588,12.222349247217204,0,8
208.0,20.18909558215607,13.514594880980965,0,8
208.5,20.042445371319193,14.568969892806514,0,8
209.0,19.912330134840435,15.131336863360815,0,8
209.5,19.809017751848298,16.177044316480057,0,8
210.0,19.73448633158498,17.146576595969236,0,8
210.5,19.689388549478178,18.380326507531915,0,8
211.0,19.675635477074874,19.619811697193615,0,8
211.5,19.68284580996351,20.309240756934543,0,8
212.0,19.710325870310605,20.938245340137737,0,8
212.5,19.756120841621183,21.826136472620686,0,8
213.0,19.823597070946825,22.832106989152024,0,8
213.5,19.909668252173653,23.559719097103184,0,8
214.0,20.007086169305744,23.935628052720784,0,8
214.5,20.109630627339374,24.17564523432985,0,8
215.0,20.217638075298463,24.527385171583568,0,8
215.5,20.32926952639337,24.72179480053644,0,8
216.0,20.439840061292905,24.738909276890812,0,8
216.5,20.549955802276354,24.86961296107895,0,8
217.0,20.655427683595516,24.67926951711973,0,8
217.5,20.75470000164797,24.6173526254181,0,8
218.0,20.845145731315867,24.295393169567568,0,8
