"time","temp","T_env","heater"
0.0,25.0,25.0,0
0.5,25.0,25.0,0
1.0,25.0,25.0,0
1.5,25.0,25.0,0
2.0,24.997757841500253,24.7870243144839,0
2.5,24.980353805331752,24.320114195709717,0
3.0,24.94980928229237,23.447952432498326,0
3.5,24.89168976568782,22.323333538377867,0
4.0,24.811454750616015,21.342509178918217,0
4.5,24.71301795009058,20.53691197325222,0
5.0,24.591830146454594,19.344253987232538,0
5.5,24.451159457982676,18.63687471963977,0
6.0,24.29023100644685,17.440166469339367,0
6.5,24.104843729010287,16.437961879808547,0
7.0,23.900463583742827,15.553140020569327,0
7.5,23.6753280582006,14.386405063947866,0
8.0,23.430648756842025,13.478227162712546,0
8.5,23.17129542529583,12.533206415753327,0
9.0,22.897393855318374,11.89224068574442,0
9.5,22.612529844071563,11.109613890763308,0
10.0,22.320728965246087,10.55975241542553,0
10.5,22.025639736529893,10.175560973240025,0
11.0,21.72890577777487,10.0,0
11.5,21.439709625386477,10.0,0
12.0,21.15741347006681,10.092601045352135,0
12.5,20.885310238376956,10.173345414391493,0
13.0,20.624182580441413,10.407575139331072,0
13.5,20.375916758481093,10.849101375298954,0
14.0,20.14921253387877,11.499530572053853,0
14.5,19.94051818460334,11.849354642049494,0
15.0,19.7502901400247,12.626734987376137,0
15.5,19.58292752848289,13.362389383852094,0
16.0,19.43725973954134,14.054282704259919,0
16.5,19.32034627849172,14.972802480818356,0
17.0,19.228696160547187,15.870393702205309,0
17.5,19.16067128551576,16.63297755327394,0
18.0,19.113453989272486,17.79010487911814,0
18.5,19.09274646733903,18.754125037223027,0
19.0,19.09872929435425,19.639344117376265,0
19.5,19.122481079524565,20.42832140433054,0
20.0,19.173699279900838,21.529068762212262,0
20.5,19.2404036486757,21.86314992089077,0
21.0,19.317448752358903,22.740337605065097,0
21.5,19.411072443283217,23.37329202409559,0
22.0,19.521506222681758,23.97731233778277,0
22.5,19.642861131740595,24.572660177051393,0
23.0,19.771073646096333,24.999036810575618,0
23.5,19.90001085459121,24.970346045290423,0
24.0,20.02624194500498,25.0,0
24.5,20.14650034716371,24.837527849005493,0
25.0,20.26239461821383,24.729497616915165,0
25.5,20.371862942334342,24.5096299133473,0
26.0,20.464678786556128,23.95175401793126,0
26.5,20.540860111825786,23.329209131156496,0
27.0,20.60664885808296,22.877929353795725,0
27.5,20.650501981821304,21.914898767353513,0
28.0,20.663027463574565,20.740466825473934,0
28.5,20.65669870726318,20.079931234898446,0
29.0,20.63291091552771,19.365430497117067,0
29.5,20.59104145198126,18.567887744335163,0
30.0,20.53050858200394,17.62282813353246,0
30.5,20.441108008502056,16.5048556525533,0
31.0,20.33099894092373,15.483486297764237,0
31.5,20.198132312615478,14.521620398293026,0
32.0,20.03967019563446,13.537578952394686,0
32.5,19.86559894471244,12.892257866142845,0
33.0,19.678097837691638,11.86665314906365,0
33.5,19.479519289136597,11.50026077127671,0
34.0,19.272919502476416,11.05380242590363,0
34.5,19.061167524489143,10.531950815652522,0
35.0,18.84211052289967,10.167469811676533,0
35.5,18.629794214440267,10.265321301968669,0
36.0,18.421793589335074,10.0,0
36.5,18.213796225426023,10.06809016890045,0
37.0,18.016922924772608,10.192500268097337,0
37.5,17.834190387959865,10.759948092633746,0
38.0,17.66869029133158,11.51810216879062,0
38.5,17.52359108044079,11.967139416549548,0
39.0,17.390679884457956,12.499539564475063,0
39.5,17.27394970012947,13.029945612922303,0
40.0,17.18136029791813,13.947701892632356,0
40.5,17.113860819826826,14.681556926205094,0
41.0,17.065144599185338,15.471654658737618,0
41.5,17.039455422325656,16.41682594764874,0
42.0,17.039527115917505,17.506503224645247,0
42.5,17.05892173973276,18.041353731540298,0
43.0,17.097993924858958,19.20107711012414,0
43.5,17.166263720904578,20.154605647285408,0
44.0,17.25248294424553,20.84253501764333,0
44.5,17.35962002821877,22.06527824530543,0
45.0,17.483915364110203,22.636759666229526,0
45.5,17.6238044673749,23.367945684830836,0
46.0,17.77728225367728,23.89294758754773,0
46.5,17.935002742320478,24.447601807142114,0
47.0,18.103685231735806,24.801013665341483,0
47.5,18.270638574193086,24.96053304393042,0
48.0,18.4370559933543,24.97146663578672,0
48.5,18.59942920396259,24.98643265049881,0
49.0,18.753079073598077,24.800985857136155,0
49.5,18.896457493479904,24.34334013778773,0
50.0,19.019471103911314,23.81036803815596,0
50.5,19.13295768805162,23.50867578476551,0
51.0,19.22995068521634,22.656908747070986,0
51.5,19.303747701314727,21.920528555667712,0
52.0,19.357932104280753,21.204811268155414,0
52.5,19.393771948885227,20.48168790865217,0
53.0,19.417168729061242,19.99970765376593,0
53.5,19.415997450219145,18.840344052993217,0
54.0,19.38726249420072,17.70820475356604,0
54.5,19.329530394321377,16.50923848832536,0
55.0,19.249567471079082,15.955687229147255,0
55.5,19.15102364854808,14.789130402995369,0
56.0,19.029118597060773,13.580201196383094,0
56.5,18.88451157471083,12.964037070354554,0
57.0,18.727630284274134,12.26365408601568,0
57.5,18.55852380842107,11.566378375859676,0
58.0,18.375439970038034,11.065680561552213,0
58.5,18.18289130173574,10.256951132243744,0
59.0,17.98035453894962,10.0,0
59.5,17.782830813581114,10.0,0
60.0,17.590196046703486,10.0,0
60.5,17.402780772811305,10.09030846262917,0
61.0,17.223504803082143,10.143724059049394,0
61.5,17.0526048762666,10.56071426241422,0
62.0,16.896429338941147,10.84973090374855,0
62.5,16.75626560427413,11.519960472417118,0
63.0,16.63678657744067,12.103934056928527,0
63.5,16.53890601088354,12.9446909181807,0
64.0,16.460429560267276,13.674940078356004,0
64.5,16.403996650999286,14.481171338165254,0
65.0,16.369337663290622,15.513136577867712,0
65.5,16.36328748138411,16.42973039081801,0
66.0,16.38493290651378,17.752207631840587,0
66.5,16.435990674170156,18.828028119495716,0
67.0,16.505656829305362,19.654239380617128,0
67.5,16.59472782419697,20.470779996162793,0
68.0,16.70968674598719,21.69645347090133,0
68.5,16.83845141486654,22.1390539325742,0
69.0,16.979749252309364,22.74028318746017,0
69.5,17.13568824905771,23.38453780036179,0
70.0,17.29932900480745,23.90000898035024,0
70.5,17.471174217842773,24.326977033530884,0
71.0,17.649561767069656,24.93179771619573,0
71.5,17.831307170430897,25.0,0
72.0,18.008741256449007,25.0,0
72.5,18.181783627599486,25.0,0
73.0,18.34821232280963,24.88432529191111,0
73.5,18.50640110949441,24.760661269314312,0
74.0,18.655986007555647,24.062116799703542,0
74.5,18.790093958179767,23.804034928972065,0
75.0,18.908407310290368,23.09011409750021,0
75.5,19.00134109891446,22.334711019369163,0
76.0,19.073275172717764,21.61625682660046,0
76.5,19.12049227096084,20.56290313778895,0
77.0,19.13122091419628,18.911596250725296,0
77.5,19.115877967906044,18.20471089693158,0
78.0,19.08097960563521,17.44424838752016,0
78.5,19.02301347121269,16.28015568354318,0
79.0,18.938398793369956,15.278599050038064,0
79.5,18.831196066048896,14.14799722948282,0
80.0,18.69675170730398,13.133228466375355,0
80.5,18.550987576513023,12.599660301111776,0
81.0,18.39251494374263,12.054476364264481,0
81.5,18.23051935453813,11.587059110210719,0
82.0,18.055990028528782,10.855146321172207,0
82.5,17.8770810818079,10.689284831031916,0
83.0,17.702390975975945,10.712430578274745,0
83.5,17.518910198022773,10.032582010319377,0
84.0,17.332974248912524,10.0,0
84.5,17.15596230502004,10.366258669512364,0
85.0,16.986505130418205,10.314384359228606,0
85.5,16.821324889338975,10.304604149427224,0
86.0,16.664851451003663,10.621156106656656,0
86.5,16.524525285133926,11.371094448706344,0
87.0,16.407906079217728,12.058387475923581,0
87.5,16.310537614248076,12.666292737844906,0
88.0,16.22855993293966,13.288216692057276,0
88.5,16.170791646403934,14.298532094062569,0
89.0,16.147067554586602,15.665598431726352,0
89.5,16.14808167764294,16.62431525749348,0
90.0,16.175587620309962,17.549539594472062,0
90.5,16.222892614443772,18.379883094329553,0
91.0,16.28767149536233,18.923973468109672,0
91.5,16.36347584813362,19.638618426607337,0
92.0,16.465500830257753,20.91893296304281,0
92.5,16.592705126264942,21.954190392943577,0
93.0,16.741653773724938,22.888797966689637,0
93.5,16.905621703967892,23.56565840982884,0
94.0,17.073739577152914,23.75126438909413,0
94.5,17.250427369165482,24.496014720177207,0
95.0,17.43186603094829,24.655077283679624,0
95.5,17.60951260740939,24.720656850814585,0
96.0,17.787688407278836,24.84794226941331,0
96.5,17.96009443339913,24.57173500168422,0
97.0,18.11919927896729,24.309771934656865,0
97.5,18.271842834824895,24.151329155609613,0
98.0,18.41360469960204,23.87526387048943,0
98.5,18.531351706508836,22.617907193473847,0
99.0,18.62603357583539,22.262159157156816,0
99.5,18.70860393471014,21.734279671625373,0
100.0,18.77592881148592,21.169862646821578,0
100.5,18.821611598517272,20.14648679154011,0
101.0,18.84881319598757,19.683779699865013,0
101.5,18.848473787871722,18.36245947529709,0
102.0,18.82374586470095,17.570075392607688,0
102.5,18.775293990751553,16.41683276204703,0
103.0,18.704995333423305,15.595482568256969,0
103.5,18.614719274823717,14.742153284447454,0
104.0,18.49967337586805,13.433055261206214,0
104.5,18.364529154565084,12.680454895723923,0
105.0,18.21830091542045,12.37384482305851,0
105.5,18.059342908438303,11.424440393368712,0
106.0,17.881417338231884,10.904668807382313,0
106.5,17.703708285783794,10.679288834752565,0
107.0,17.523961409889356,10.294302398937557,0
107.5,17.342534306726847,10.019190787357774,0
108.0,17.160797427389948,10.0,0
108.5,16.98355876242038,10.0,0
109.0,16.81070697540382,10.0,0
109.5,16.642820350309407,10.137372933674246,0
110.0,16.495237786622926,11.04768668330368,0
110.5,16.362565450198137,11.163352443993809,0
111.0,16.241024064819126,11.684709178195472,0
111.5,16.14347512656335,12.592709734509532,0
112.0,16.077420893463604,13.999894826050713,0
112.5,16.045035176731663,15.305459967538166,0
113.0,16.036979741297564,16.01970554719054,0
113.5,16.050128495355143,17.096470349646815,0
114.0,16.090294894774143,17.952328619638738,0
114.5,16.14659419675791,18.536778800601613,0
115.0,16.223622847186498,19.53475863503715,0
115.5,16.322707510515713,20.482931999827148,0
116.0,16.442192616906915,21.577074177355218,0
116.5,16.575032114903905,21.80237806181341,0
117.0,16.71339800852013,22.525540856830332,0
117.5,16.871574364993403,23.264251501458645,0
118.0,17.039787517522896,23.771319481579056,0
118.5,17.219112387610757,24.446998210807774,0
119.0,17.405084690359818,24.80258759803602,0
119.5,17.58193450257844,24.391066719190658,0
120.0,17.752766018125147,24.328418775544286,0
120.5,17.91787977566455,24.45848097374841,0
121.0,18.06946616555736,23.810034265731925,0
121.5,18.213442962364404,23.853648731072685,0
122.0,18.34442614865835,23.36413072391776,0
122.5,18.46338086848729,22.9291833241534,0
123.0,18.56277763926299,22.079227476645208,0
123.5,18.6437545799869,21.849701207136846,0
124.0,18.709710345499467,21.111482828003044,0
124.5,18.758290893140916,20.21987061159689,0
125.0,18.787171639872255,19.566249076325033,0
125.5,18.78848787090054,18.104330671917634,0
126.0,18.76183045823394,17.355521165993643,0
126.5,18.709484130502265,16.086770841376435,0
127.0,18.630637510827643,15.042257241107716,0
127.5,18.526739816250334,14.038024429828365,0
128.0,18.40292561142233,13.27020632301183,0
128.5,18.262578841929265,12.382306361243739,0
129.0,18.10624576274339,11.668649532790553,0
129.5,17.942965663880862,11.327893981022974,0
130.0,17.767087904192387,10.596167319867128,0
130.5,17.58176096887162,10.016541891130698,0
131.0,17.395093719049047,10.187063583367163,0
131.5,17.216220521507424,10.069311628879994,0
132.0,17.037626986525627,10.0,0
132.5,16.863436943545974,10.0,0
133.0,16.693558321323827,10.0,0
133.5,16.54147963727498,10.721371323287947,0
134.0,16.40505462064388,11.118846161497894,0
134.5,16.286568268209397,11.834318758745615,0
135.0,16.187781187302065,12.623008226676149,0
135.5,16.114308227415258,13.48935003370314,0
136.0,16.057775984903838,14.042261194134305,0
136.5,16.016741391557115,14.881205059702816,0
137.0,16.002648644142056,16.0205081846331,0
137.5,16.004841247589276,16.278150400896692,0
138.0,16.034794998983845,17.74685690824628,0
138.5,16.090914631236295,18.685347877112775,0
139.0,16.170351622514552,19.776012766864433,0
139.5,16.274696366637755,20.80989246295699,0
140.0,16.400693431995283,21.644608194249173,0
140.5,16.542398284521166,22.35248942793912,0
141.0,16.699820959566633,23.42391053598348,0
141.5,16.873394971172925,23.8624666332707,0
142.0,17.056260346738217,24.587517183961456,0
142.5,17.247432929479857,24.833419413409707,0
143.0,17.438777107210594,25.0,0
143.5,17.625926801730557,25.0,0
144.0,17.807125594080304,24.85749865355266,0
144.5,17.98260688522435,24.84396576400309,0
145.0,18.15190541086664,24.63183063442304,0
145.5,18.309553363484323,24.449577661459102,0
146.0,18.456949466973416,24.03246071114561,0
146.5,18.585053399738843,23.46175324270967,0
147.0,18.694639705934268,22.64131800531097,0
147.5,18.781079108626084,21.9725323740497,0
148.0,18.851463947812473,21.25388343767045,0
148.5,18.900808964017706,20.548163418594733,0
149.0,18.926184752273624,19.562961038875272,0
149.5,18.927727342331547,18.312565174705828,0
150.0,18.90116391669017,17.67664601779021,0
150.5,18.85554846975521,16.49053276437253,0
151.0,18.78262855447415,15.527089007057938,0
151.5,18.688807693206392,14.55208855676063,0
152.0,18.56795158722405,13.441552789311071,0
152.5,18.435047487110328,12.945129851533618,0
153.0,18.294438598240497,12.670475009488168,0
153.5,18.144009856981818,11.90432858067055,0
154.0,17.98073966234125,11.313943581503821,0
154.5,17.80754064634962,10.84558439895632,0
155.0,17.6275857891591,10.449422049162013,0
155.5,17.446323270975387,10.344365865496147,0
156.0,17.264830342382606,10.044152132548184,0
156.5,17.088063996813812,10.32951811113751,0
157.0,16.922540619974217,10.507584246375234,0
157.5,16.77110603812271,10.62740049958563,0
158.0,16.632016096558022,11.429027455639531,0
158.5,16.508467499004844,11.762697439990772,0
159.0,16.39918000364793,12.252515318699327,0
159.5,16.30716610480813,13.062766791188213,0
160.0,16.245550837203577,14.26218654512762,0
160.5,16.206321701872987,14.992767818532995,0
161.0,16.18905527901314,15.958839015894462,0
161.5,16.196790220605212,16.9148616253422,0
162.0,16.227721780705846,18.013259062509338,0
162.5,16.287882487944273,18.90885486792569,0
163.0,16.370066506627488,20.04601215331426,0
163.5,16.477123411261918,20.806334677784104,0
164.0,16.59839733985942,21.696626676727213,0
164.5,16.741458008215492,22.78195723217153,0
165.0,16.897730753353482,23.23593943528276,0
165.5,17.066716147243955,24.149122089651037,0
166.0,17.25020931955619,24.658056579129955,0
166.5,17.440796443788717,25.0,0
167.0,17.6278961572105,25.0,0
167.5,17.81036491943456,25.0,0
168.0,17.98697896428597,24.957858930980336,0
168.5,18.16055997930241,25.0,0
169.0,18.32984464776282,25.0,0
169.5,18.48978867421184,24.729617583260335,0
170.0,18.636594900597576,24.134564040955603,0
170.5,18.75973980196584,23.27214025864037,0
171.0,18.861848089176828,22.734161231445583,0
171.5,18.945643248496783,22.15377292660367,0
172.0,19.010296713670463,21.3146140638628,0
172.5,19.055068987440624,20.307039647402352,0
173.0,19.068452928060786,19.156000534151588,0
173.5,19.055931032881556,18.087110989460285,0
174.0,19.016808013158514,17.22656855204837,0
174.5,18.962672436803416,16.332211941521244,0
175.0,18.89065012543002,15.84536945541473,0
175.5,18.798358636823284,14.6048630484279,0
176.0,18.680142224025822,13.613291737064317,0
176.5,18.53325684525907,12.397056005051837,0
177.0,18.370525962196407,11.739897437906137,0
177.5,18.200423390422355,11.231980284754686,0
178.0,18.013783781285365,10.394729176642922,0
178.5,17.82127951088828,10.236082009875995,0
179.0,17.632041557652745,10.140929723288751,0
179.5,17.444094805971844,10.0,0
180.0,17.259844177645064,10.0,0
180.5,17.087023471329694,10.49564196637667,0
181.0,16.92826555073786,10.959690709264901,0
181.5,16.78494082833148,11.257121515967789,0
182.0,16.65404902698804,11.725091891618632,0
182.5,16.534061569094575,11.829264231591132,0
183.0,16.428109651872543,12.517944604678558,0
183.5,16.340759326647834,13.278645426145525,0
184.0,16.27486838762849,14.047388161370192,0
184.5,16.232374794838012,14.913629544243904,0
185.0,16.20997635697236,15.588645231297548,0
185.5,16.20568000549819,16.34761979015071,0
186.0,16.22791160481605,17.492819755226552,0
186.5,16.274706695511956,18.491687480931223,0
187.0,16.345864579789136,19.764210203441557,0
187.5,16.441007404617007,20.497289437428254,0
188.0,16.559128825337087,21.64401945998813,0
188.5,16.698321600434948,22.29424651953854,0
189.0,16.845487253164116,22.788417459795152,0
189.5,17.005188936158607,23.59651133958534,0
190.0,17.176894970292093,24.30189875771635,0
190.5,17.353219994455415,24.366886440544715,0
191.0,17.536239777231952,24.953948271947684,0
191.5,17.720977149144815,25.0,0
192.0,17.898956788114493,24.758882068099986,0
192.5,18.069966328386744,24.762695632798323,0
193.0,18.238438041304043,24.93732433872621,0
193.5,18.39557347425725,24.46113788956531,0
194.0,18.539209464436755,24.1365037474261,0
194.5,18.67444821096509,23.78762564302431,0
195.0,18.788396207431955,23.04091594484722,0
195.5,18.875077399912747,22.218446783609405,0
196.0,18.943962299037914,21.278292588244813,0
196.5,18.99316919856516,20.54227911114898,0
197.0,19.018753989382628,19.72988686333689,0
197.5,19.020385779000943,18.835061369353237,0
198.0,19.0059774140024,18.084299405509483,0
198.5,18.976051783450362,17.55306856517575,0
199.0,18.926221235908613,16.61677542002913,0
199.5,18.85254458382312,15.680920712261894,0
200.0,18.7613323690163,14.725738235269134,0
200.5,18.646859387037626,13.886846064378572,0
201.0,18.518352966983798,13.2161106776488,0
201.5,18.376994974568053,12.377515891016461,0
202.0,18.217996745539487,11.579243856539119,0
202.5,18.04795228232261,11.102967413091783,0
203.0,17.87214878248026,10.974402007005818,0
203.5,17.697091330860534,10.729635998396294,0
204.0,17.522087973631603,10.539057125350126,0
204.5,17.34646046001227,10.340271221960096,0
205.0,17.176053569095085,10.4652101568745,0
205.5,17.018264376866394,10.842660864394647,0
206.0,16.874365084868426,11.4643728913996,0
206.5,16.74680511527976,12.080674095282298,0
207.0,16.63704793779406,12.612346742699428,0
207.5,16.556784711129655,13.784718541221945,0
208.0,16.492028432225677,14.259545750039356,0
208.5,16.444266646294228,14.717529179211065,0
209.0,16.41441979654622,15.401699772850188,0
209.5,16.40434783691753,16.38639147406565,0
210.0,16.41792374819434,17.570501041200448,0
210.5,16.462790705735824,18.59744591519158,0
211.0,16.523291511572392,19.0523542452516,0
211.5,16.6032700489923,20.13197789885452,0
212.0,16.70863340617355,21.185296801235346,0
212.5,16.830741502030353,22.08090569958216,0
213.0,16.970268805533212,22.84056812116696,0
213.5,17.12669848989083,23.594571362180783,0
214.0,17.295231031757893,24.17562402982427,0
214.5,17.472947364980417,24.665606136960754,0
215.0,17.656088878757775,25.0,0
215.5,17.83785983597065,25.0,0
216.0,18.015131735346273,25.0,0
216.5,18.188015934175898,25.0,0
217.0,18.355452621806226,24.816973185661,0
217.5,18.513805224092106,24.74299999362833,0
218.0,18.662723017021644,24.361821417684233,0
218.5,18.794405000990164,23.603006906675244,0
219.0,18.900465443241817,22.760115723988,0
219.5,18.97757648859089,21.59067293076927,0
220.0,19.026276941341813,20.71689004586423,0
220.5,19.052362347388758,19.983674186223652,0
221.0,19.067079666662956,19.26480671793835,0
221.5,19.060410101780963,18.598615401038483,0
222.0,19.043521060224307,18.12687519852366,0
222.5,19.01055377893587,17.47100646824359,0
223.0,18.956052456908996,16.223044547112078,0
223.5,18.8712734326403,15.215151650719724,0
224.0,18.764957456995692,14.363266322764634,0
224.5,18.647636403375277,13.785155098570547,0
225.0,18.51666827261865,13.228017956125186,0
225.5,18.37401559219002,12.51248609378108,0
226.0,18.213599351214075,11.749458019491637,0
226.5,18.04410700829753,11.00855043770207,0
227.0,17.861405627520757,10.576804744727154,0
227.5,17.67597753602855,10.35484730314515,0
228.0,17.496880733445447,10.465729832236901,0
228.5,17.322423264225918,10.473808867745241,0
