"time","temp","T_env","heater","graph_state"
0.0,25.0,25.0,0,6
0.5,25.0,25.0,0,8
1.0,25.0,25.0,0,8
1.5,25.0,25.0,0,8
2.0,24.995549790686127,24.51020338882804,0,8
2.5,24.981893845198158,24.249661127466247,0,8
3.0,24.946819975968836,23.14373845382689,0,8
3.5,24.886749142155946,22.154165459615626,0,8
4.0,24.809094360354397,21.497074748123172,0,8
4.5,24.717813012388735,20.917392973505784,0,8
5.0,24.603754833858442,19.771073364939166,0,8
5.5,24.471194554837105,18.903131858424327,0,8
6.0,24.313876983351307,17.63427094515301,0,8
6.5,24.130164234628257,16.49674035695005,0,8
7.0,23.930851423268084,15.937327885220533,0,8
7.5,23.72281650284918,15.196359786553183,0,8
8.0,23.49104994330676,13.786415511885405,0,8
8.5,23.24407378186094,13.293393374013764,0,8
9.0,22.983612277821365,12.217901204816128,0,8
9.5,22.7132045980959,11.868571939919121,0,8
10.0,22.428713838217377,10.853650942734914,0,8
10.5,22.132171881452283,10.198484735535512,0,8
11.0,21.842525474787998,10.345024698335964,0,8
11.5,21.554092117303572,10.093177484952317,0,8
12.0,21.269187494316554,10.0,0,8
12.5,20.990261052528847,10.0,0,8
13.0,20.718238387962664,10.0,0,8
13.5,20.453359458650457,10.082167025369902,0,7
14.0,20.20128760679987,10.285455309021556,0,7
14.5,19.970824835666512,11.206725033543627,1,3
15.0,19.91018864510552,11.71057136345382,1,3
15.5,19.875045016445725,12.910602387598189,1,3
16.0,19.863147142019656,13.686462632906082,1,3
16.5,19.873288134797388,14.56860626086021,1,3
17.0,19.906118078604077,15.417626392898763,1,3
17.5,19.956417238183842,16.446652264970915,1,3
18.0,20.030961333963862,17.08581205425083,1,3
18.5,20.12316822328038,18.02073255865866,1,0
19.0,20.237038895827805,18.971457806845716,1,0
19.5,20.37542753116479,20.284061767563877,1,0
20.0,20.53751974504256,21.496708547930577,1,0
20.5,20.72166514120126,22.182383086055694,1,0
21.0,20.915098230186498,22.922998925134433,1,0
21.5,21.05559237025535,23.164993249487868,0,8
22.0,21.11760709537987,24.03931663744388,0,8
22.5,21.19747335805765,24.690554623656872,0,8
23.0,21.289962446256798,25.0,0,8
23.5,21.378526881166664,24.810238867543735,0,8
24.0,21.468162856393402,25.0,0,8
24.5,21.55558022946814,25.0,0,8
25.0,21.64083391356047,25.0,0,8
25.5,21.723070965420863,25.0,0,8
26.0,21.798006191660146,24.54996011803634,0,8
26.5,21.856806472320116,23.918635696240344,0,8
27.0,21.898972760900126,23.402181001003022,0,8
27.5,21.930943826395144,22.811280336579653,0,8
28.0,21.939797454556864,22.11132752702871,0,8
28.5,21.93119152621909,21.095061032325734,0,8
29.0,21.89604033178058,20.342301847206432,0,8
29.5,21.8476650177868,19.730686473938867,0,8
30.0,21.77433074691261,18.043073039125606,0,8
30.5,21.664910327041405,16.801977430098848,0,8
31.0,21.533188850780554,15.896628488924726,0,8
31.5,21.37196649211718,14.387576002384554,0,8
32.0,21.18962651032468,13.781718437673423,0,8
32.5,20.99017422850298,12.829484669868013,0,8
33.0,20.776185719821328,12.0841272201456,0,8
33.5,20.555194995128605,11.630603540666613,0,7
34.0,20.327895954036713,11.28244989796004,0,7
34.5,20.096801406953833,10.907166197626413,0,7
35.0,19.924962414545533,10.67633330351042,1,3
35.5,19.83511910849919,10.075783538566085,1,3
36.0,19.741780954547078,10.134456402218015,1,3
36.5,19.64989123276433,10.022033968241848,1,3
37.0,19.561585789360223,10.12382697940463,1,3
37.5,19.47567220998379,10.267884867986536,1,3
38.0,19.403230030860595,10.824605640602574,1,3
38.5,19.347839852096442,11.534451586267878,1,3
39.0,19.31609154890173,12.336438004546535,1,3
39.5,19.308897064682238,13.223643579466684,1,3
40.0,19.318915153638503,14.067331707188963,1,3
40.5,19.358687324078158,15.298898169357875,1,3
41.0,19.417570770658354,15.872167376029568,1,3
41.5,19.48292587570636,16.299725896009562,1,3
42.0,19.571410182393528,17.725980941673775,1,3
42.5,19.693243446220016,18.99633601846953,1,3
43.0,19.834970379597515,19.870977779286175,1,3
43.5,19.994971870308902,20.726490907583898,1,3
44.0,20.176862205598216,21.734582008836426,1,0
44.5,20.381550357281835,22.80298998786959,1,0
45.0,20.602569482372978,23.82722317594071,1,0
45.5,20.833178098028856,24.19081295042008,1,0
46.0,21.04011851530714,24.553651337712562,0,8
46.5,21.133207177336175,25.0,0,8
47.0,21.2287646065965,25.0,0,8
47.5,21.322107384854153,25.0,0,8
48.0,21.412897702602912,24.988729649880263,0,8
48.5,21.501682957142876,25.0,0,8
49.0,21.58678964509317,24.827435252495444,0,8
49.5,21.662855803717463,24.524305636083085,0,8
50.0,21.727821307534263,24.202831581551077,0,8
50.5,21.781144417324338,23.717373743286185,0,8
51.0,21.823435537641565,23.36079931540708,0,8
51.5,21.85115169042553,22.807251531011154,0,8
52.0,21.86183109296118,21.819101674323676,0,8
52.5,21.842399550421234,20.58782723172059,0,8
53.0,21.800219759497,19.77663111869534,0,8
53.5,21.736813636501605,18.85023842834218,0,8
54.0,21.653124537381586,17.81547035172078,0,8
54.5,21.544718610870706,16.81233312878299,0,8
55.0,21.41258653094821,15.779526793716865,0,8
55.5,21.260894342861416,14.803735335905085,0,8
56.0,21.08864499128786,14.218025726630017,0,8
56.5,20.907448103712024,13.454931910454661,0,8
57.0,20.711058752637978,12.73204268236837,0,7
57.5,20.50032844890094,11.830757960215887,0,7
58.0,20.273415934136345,10.9374562229224,0,7
58.5,20.03440968252781,10.195151322996882,0,7
59.0,19.90890334218899,10.062213147046196,1,3
59.5,19.81215311054374,10.0,1,3
60.0,19.717797567767455,10.0,1,3
60.5,19.625777442324754,10.0,1,3
61.0,19.53866908547229,10.27254731618812,1,3
61.5,19.45593762246903,10.098838166024477,1,3
62.0,19.378073916847754,10.411279840348008,1,3
62.5,19.31928310685565,11.263606478417449,1,3
63.0,19.280271294791124,11.974758224513378,1,3
63.5,19.260250579646158,12.837198860432359,1,3
64.0,19.256110023564517,13.433535375155108,1,3
64.5,19.274804995919204,14.22652305873589,1,3
65.0,19.317400954536424,15.626496047391779,1,3
65.5,19.39102701156125,16.63706356841676,1,3
66.0,19.488231856568454,17.801343371480563,1,3
66.5,19.605149700431188,18.586514784103283,1,3
67.0,19.743205196915234,19.530509192560196,1,3
67.5,19.90193364435137,20.478059055389338,1,3
68.0,20.079950017623275,21.498091440759342,1,3
68.5,20.28684057312262,22.897003114245454,1,3
69.0,20.504431016786135,23.13787379337182,1,0
69.5,20.724665010962266,23.61898717521024,1,0
70.0,20.957598631367624,24.548280914645908,1,0
70.5,21.07239232238474,24.456877604807143,0,8
71.0,21.16585343913535,24.992303439725468,0,8
71.5,21.26062330862138,25.0,0,8
72.0,21.35317754428,25.0,0,8
72.5,21.443440947202216,25.0,0,8
73.0,21.529360365742612,24.866633222203056,0,8
73.5,21.60752946953645,24.503629213311044,0,8
74.0,21.670577727734056,23.969088910479627,0,8
74.5,21.717902020918256,23.263206099580053,0,8
75.0,21.743555220651665,22.57355791295156,0,8
75.5,21.75111224405573,21.78928238635612,0,8
76.0,21.746039503588676,21.208054286967258,0,8
76.5,21.72366602460327,20.455637134831004,0,8
77.0,21.67236458231836,19.35878885384898,0,8
77.5,21.60184275471594,18.492132068875023,0,8
78.0,21.512169627632353,17.711317874836247,0,8
78.5,21.40327290765268,16.72209834919872,0,8
79.0,21.273186900572743,15.676956786391626,0,8
79.5,21.111872336728545,14.348284416355593,0,8
80.0,20.93122200532909,13.55470950265827,0,8
80.5,20.73143131618361,12.577876545130476,0,7
81.0,20.51960702688263,12.019272345764627,0,7
81.5,20.302158788143217,11.52141691860718,0,7
82.0,20.07457648837619,10.789905570096746,0,7
82.5,19.925462122351362,10.27859331680859,1,3
83.0,19.831741687664156,10.085200854255312,1,3
83.5,19.73708881363089,10.0,1,3
84.0,19.6464119553548,10.047205056721165,1,3
84.5,19.5568853324099,10.0,1,3
85.0,19.47619892797035,10.389219569767638,1,3
85.5,19.404715041901035,10.443399511958816,1,3
86.0,19.338309524951924,11.007633567773917,1,3
86.5,19.28733060350311,11.454093227798333,1,3
87.0,19.25893205451242,12.46791066072986,1,3
87.5,19.25200262605903,13.341069841403819,1,3
88.0,19.26131583888727,14.18652257576104,1,3
88.5,19.297910868005168,15.031707980094817,1,3
89.0,19.35958328050154,16.07516421406387,1,3
89.5,19.433456426084764,16.557408130945845,1,3
90.0,19.527219287303108,17.678292918097622,1,3
90.5,19.637139663308947,18.195304633215983,1,3
91.0,19.767564727333504,19.32805234475871,1,3
91.5,19.912716054626053,19.803594080483546,1,3
92.0,20.073030422481803,20.69249422075554,1,3
92.5,20.254397899561795,21.721981770073477,1,0
93.0,20.458669243632162,22.868626675843654,1,0
93.5,20.678062375714298,23.630189479371253,1,0
94.0,20.904678628585565,23.746635997679185,1,0
94.5,21.068145131483952,24.163117899777216,0,8
95.0,21.15377194130443,24.78781615381272,0,8
95.5,21.248970881534778,25.0,0,8
96.0,21.34181352929295,25.0,0,8
96.5,21.432358205755637,25.0,0,8
97.0,21.520661788577694,25.0,0,8
97.5,21.605783801211714,24.869820916278446,0,8
98.0,21.682354745307567,24.533235776261925,0,8
98.5,21.74918196229838,24.168610180053335,0,8
99.0,21.80259235423288,23.693100375123585,0,8
99.5,21.832365496045416,22.654301186908874,0,8
100.0,21.83731760264359,21.567765462241933,0,8
100.5,21.81101344395033,20.2626608166859,0,8
101.0,21.760661781426,19.777990746612836,0,8
101.5,21.696059863850202,18.84459853261115,0,8
102.0,21.608957539418128,17.802877007700786,0,8
102.5,21.4888534057375,16.212941892322373,0,8
103.0,21.343015531508613,15.243120722219063,0,8
103.5,21.183310032293814,14.588468050311699,0,8
104.0,21.016281806153188,14.238984129234874,0,8
104.5,20.835367480899638,13.362384559760928,0,7
105.0,20.63654106186119,12.330882653820458,0,7
105.5,20.417910556586378,11.398895369208095,0,7
106.0,20.18550338362287,10.769617019837586,0,7
106.5,19.9710963103175,10.0,1,3
107.0,19.872806725164022,10.0,1,3
107.5,19.776949929798228,10.0,1,3
108.0,19.683465709639474,10.0,1,3
108.5,19.59229534049308,10.0,1,3
109.0,19.503381551661402,10.0,1,3
109.5,19.416725481029655,10.011398212338673,1,3
110.0,19.338967724950326,10.539901033411734,1,3
110.5,19.2722149760363,10.826334125397413,1,3
111.0,19.21959750757878,11.389213869342314,1,3
111.5,19.19103996286818,12.420473754062051,1,3
112.0,19.184494966820967,13.246066873071541,1,3
112.5,19.20195935818959,14.504288273893756,1,3
113.0,19.249490554415576,15.529629411879617,1,3
113.5,19.324243196306828,16.580264680142527,1,3
114.0,19.41519807626429,17.396945796458365,1,3
114.5,19.527785034629506,18.36819319589383,1,3
115.0,19.665616060883103,19.53771805486278,1,3
115.5,19.82309882864158,20.404505364940107,1,3
116.0,19.996996106694013,21.129786113649388,1,3
116.5,20.18482656998202,22.00257961122876,1,0
117.0,20.39178918660548,22.877831234875273,1,0
117.5,20.610525764754385,23.478868800678292,1,0
118.0,20.840373539161124,24.15443211989816,1,0
118.5,21.044951486478187,24.42065739883227,0,8
119.0,21.1269047925503,24.43990270430328,0,8
119.5,21.211487316694132,24.843115602035134,0,8
120.0,21.304399204543532,24.91257045873474,0,8
120.5,21.394395117588424,24.81631223938857,0,8
121.0,21.47721028644336,24.8328360323978,0,8
121.5,21.549204162318084,24.256582811179733,0,8
122.0,21.606165461313086,23.62077320930224,0,8
122.5,21.652798518333526,23.46684155993409,0,8
123.0,21.68914630397513,22.813931970705084,0,8
123.5,21.706669587979032,22.082803901641732,0,8
124.0,21.708002740267137,21.589522741500726,0,8
124.5,21.688238757606754,20.406611037117262,0,8
125.0,21.642230024190383,19.41074578771992,0,8
125.5,21.573966303207815,18.404737377802284,0,8
126.0,21.483206153896077,17.62019251610599,0,8
126.5,21.370287400496114,16.5633645425595,0,8
127.0,21.23640598125253,15.567468863983267,0,8
127.5,21.08623906570536,14.860670883150771,0,8
128.0,20.91436155374721,13.639607581502714,0,8
128.5,20.720146278404652,12.650372271105647,0,7
129.0,20.503770441952124,11.589531449059546,0,7
129.5,20.2743083533698,10.958680685470252,0,7
130.0,20.038784376298928,10.553980303352581,0,7
130.5,19.92156256459462,10.381712502918703,1,3
131.0,19.831014032455098,10.0,1,3
131.5,19.736191658344243,10.0,1,3
132.0,19.643716256224575,10.0,1,3
132.5,19.553529735612926,10.0,1,3
133.0,19.46821222707203,10.141738037855355,1,3
133.5,19.390199337292326,10.453672062936253,1,3
134.0,19.327633182877715,11.035673186965695,1,3
134.5,19.272866043995098,11.422923715339028,1,3
135.0,19.24270013712614,12.45647020788946,1,3
135.5,19.22933983035263,12.899316569715827,1,3
136.0,19.23970125580686,14.035288085906503,1,3
136.5,19.27352447224583,14.904295893932881,1,3
137.0,19.330279086627666,15.937190026947551,1,3
137.5,19.411541051427204,17.0431054628088,1,3
138.0,19.519023985191204,18.2216274001084,1,3
138.5,19.64392523837833,18.95761425269569,1,3
139.0,19.790737452043285,19.939957951857014,1,3
139.5,19.95075753980026,20.604075794838817,1,3
140.0,20.129479748481785,21.33819379546017,1,3
140.5,20.319520911832576,21.89261426724583,1,0
141.0,20.514081293327894,22.601277130791598,1,0
141.5,20.719687564523763,23.231317235491254,1,0
142.0,20.94098236744179,23.8109581729088,1,0
142.5,21.076363033465093,24.174081929577007,0,8
143.0,21.15091973097812,24.074151050003593,0,8
143.5,21.231541894965673,24.416396533177245,0,8
144.0,21.315462914616223,24.893490003952877,0,8
144.5,21.40339942615415,24.825795386872343,0,8
145.0,21.4813178277638,24.654690823156862,0,8
145.5,21.5512122698553,24.152820786762668,0,8
146.0,21.610059184273602,23.693279505091095,0,8
146.5,21.649868739614977,22.939168518938885,0,8
147.0,21.668521982640726,22.23982450124692,0,8
147.5,21.67818967110688,21.876639593038043,0,8
148.0,21.668462839984972,20.953582658756947,0,8
148.5,21.642900968222012,20.516511227538885,0,8
149.0,21.607704331221143,20.0961956401616,0,8
149.5,21.557511602836115,19.033549003385616,0,8
150.0,21.47263234241034,17.478387485801775,0,8
150.5,21.35796964629395,16.497460230986096,0,8
151.0,21.225922758696026,15.750412863694734,0,8
151.5,21.07861509812188,14.882059468291814,0,8
152.0,20.914681595773853,14.006602798750452,0,8
152.5,20.73468873109407,13.370581217560343,0,7
153.0,20.530897924056216,12.002490558947446,0,7
153.5,20.309258589667063,11.464100627523969,0,7
154.0,20.085064245326162,11.284829691942372,0,7
154.5,19.94746820989608,10.792478543525636,1,3
155.0,19.865833821087758,10.352054284641142,1,3
155.5,19.776317466542107,10.319294689136488,1,3
156.0,19.686345957687944,10.0,1,3
156.5,19.59510429881103,10.0,1,3
157.0,19.506220371736894,10.019877395669104,1,3
157.5,19.42363548129034,10.173298928747961,1,3
158.0,19.35317222552222,10.60164634507997,1,3
158.5,19.292613008220037,11.068685844449291,1,3
159.0,19.25046966607004,11.82673960283539,1,3
159.5,19.227241611356423,12.79489173570036,1,3
160.0,19.231727093283343,13.702632384203149,1,3
160.5,19.260471983729406,14.677110490856375,1,3
161.0,19.318355110286568,16.156837873322868,1,3
161.5,19.404222248859995,16.858874151140988,1,3
162.0,19.500914282789914,17.552771500507607,1,3
162.5,19.615459952613353,18.45910190191948,1,3
163.0,19.7454939388859,19.132429671504717,1,3
163.5,19.893300587696835,20.15708721726652,1,3
164.0,20.066421842819366,21.394784639946124,1,3
164.5,20.263195315729753,22.46785682266276,1,0
165.0,20.475842583086514,22.918063711514193,1,0
165.5,20.697318108871137,23.87207723042798,1,0
166.0,20.93180400737939,24.37810593912436,1,0
166.5,21.07790040493641,24.572301891789596,0,8
167.0,21.167621118112915,24.844847829889783,0,8
167.5,21.260741309560554,25.0,0,8
168.0,21.353292624548796,25.0,0,8
168.5,21.442156086827502,24.830708648622906,0,8
169.0,21.522804092646545,24.70616747021372,0,8
169.5,21.599427206152225,24.76869612906675,0,8
170.0,21.66336980128087,23.81496722295171,0,8
170.5,21.71001152867799,23.43544396785243,0,8
171.0,21.740474469640006,22.427474812855117,0,8
171.5,21.74714071906957,21.789090632253526,0,8
172.0,21.740478427208995,21.170820072006023,0,8
172.5,21.707593824907654,20.109791060028247,0,8
173.0,21.657620905528322,19.52802678463537,0,8
173.5,21.589095963157575,18.67965185188054,0,8
174.0,21.507204836113143,17.86052204471261,0,8
174.5,21.40425315680283,16.862828752659045,0,8
175.0,21.27826849520092,16.039348525275997,0,8
175.5,21.14365155521517,15.615486609422193,0,8
176.0,20.99729459327759,15.002698524700776,0,8
176.5,20.833382971591913,14.062652681190352,0,7
177.0,20.65011244123827,13.05857847324181,0,7
177.5,20.44877363862654,12.367515039031801,0,7
178.0,20.235706984416602,11.511184956696711,0,7
178.5,20.007401542381274,10.951302090872097,0,7
179.0,19.901307370021712,10.787196676271286,1,3
179.5,19.819984614979585,10.347413302287336,1,3
180.0,19.733653587847982,10.292276028761025,1,3
180.5,19.64645168504044,10.360438409765663,1,3
181.0,19.57025691651108,10.79101844428007,1,3
181.5,19.508555381986042,11.131348739370505,1,3
182.0,19.449443823149174,11.436896877120375,1,3
182.5,19.405916539487766,11.994477955350344,1,3
183.0,19.380297351598795,12.553307321834343,1,3
183.5,19.369709216634583,13.283255080789232,1,3
184.0,19.380719865701668,14.16770666136731,1,3
184.5,19.412373981732745,14.920134371213887,1,3
185.0,19.46375000643984,15.881797747068369,1,3
185.5,19.54363387275486,16.9792186438119,1,3
186.0,19.645042766157715,18.209564529807768,1,3
186.5,19.771785152183718,19.0200449343977,1,3
187.0,19.91174108582373,19.818482133409677,1,3
187.5,20.071157238772564,20.655356692325874,1,3
188.0,20.25354563024802,21.74661435617799,1,0
188.5,20.447029022627603,22.38072772234949,1,0
189.0,20.65227088056624,23.090719471991587,1,0
189.5,20.875486725291523,23.96879023073786,1,0
190.0,21.044253872250028,24.157805754928944,0,8
190.5,21.127665421786052,24.520139247987306,0,8
191.0,21.21505242418635,24.756462939051367,0,8
191.5,21.303257071476327,25.0,0,8
192.0,21.392866100485026,25.0,0,8
192.5,21.47622398386256,24.675912313033095,0,8
193.0,21.551198813694093,24.295464975648144,0,8
193.5,21.612985216967147,23.9425746670423,0,8
194.0,21.66638882440778,23.723023595179207,0,8
194.5,21.708108620561568,23.098732952511707,0,8
195.0,21.725041232746385,22.100415566276958,0,8
195.5,21.7228903310538,21.687295082192804,0,8
196.0,21.71005762415922,20.7321785150693,0,8
196.5,21.66812274733738,19.734645012248166,0,8
197.0,21.60519354930289,18.715638541507044,0,8
197.5,21.51848317574084,17.86967069517313,0,8
198.0,21.416877821972406,17.10260286187807,0,8
198.5,21.29399681204903,16.115847761806354,0,8
199.0,21.15374532527295,15.128071375196049,0,8
199.5,20.994360706538778,14.427804376622268,0,8
200.0,20.81476011284446,13.464029295020799,0,7
200.5,20.61380523546882,12.427800517953003,0,7
201.0,20.398535864578403,11.681405955903703,0,7
201.5,20.17385567259409,10.893234606341863,0,7
202.0,19.96220280546998,10.132242322671894,1,3
202.5,19.86469311226009,10.0,1,3
203.0,19.76903713893035,10.0,1,3
203.5,19.67574877021186,10.0,1,3
204.0,19.58476940493838,10.0,1,3
204.5,19.496041892395603,10.0,1,3
205.0,19.409510496420648,10.0,1,3
205.5,19.331312187030065,10.518886728792294,1,3
206.0,19.275668056202484,11.167728224113675,1,3
206.5,19.234481041914297,11.866407090418132,1,3
207.0,19.210971751495705,12.582277003378026,1,3
207.5,19.207810572194685,13.368340321877268,1,3
208.0,19.21924745895265,13.695090379323966,1,3
208.5,19.248578127936252,14.805254563410696,1,3
209.0,19.302888020643817,15.80171056583121,1,3
209.5,19.38072104372515,16.878991497893345,1,3
210.0,19.47671565788069,17.3777591392716,1,3
210.5,19.582943977533848,18.03295991928736,1,3
211.0,19.71212849537221,19.158090062690192,1,3
211.5,19.864407764770494,20.26842024901921,1,3
212.0,20.041598025623735,21.189394900040433,1,0
212.5,20.23668036778676,22.342244170495924,1,0
213.0,20.446410165804984,23.02092726698482,1,0
213.5,20.66631660436559,23.520857571123962,1,0
214.0,20.898651581733876,24.317488215364325,1,0
214.5,21.076462391043936,24.70295019963629,0,8
215.0,21.17052038139244,25.0,0,8
215.5,21.264613926577564,25.0,0,8
216.0,21.357069389465952,25.0,0,8
216.5,21.44723646436716,25.0,0,8
217.0,21.534627140133384,24.891069679235056,0,8
217.5,21.606422457763575,24.25993351576892,0,8
218.0,21.660631285675226,23.38883710827809,0,8
218.5,21.705835303124005,23.52762816881829,0,8
219.0,21.74942244069914,23.075116654357785,0,8
219.5,21.77226642734746,22.616586778579567,0,8
220.0,21.777994266042015,21.28294050348425,0,8
220.5,21.748649086564406,20.273509119632152,0,8
221.0,21.69374969747805,19.010027353899744,0,8
